#   T(MeV)             q=0                q=1                    q=2             q=3                q=4                q=5                     q=6            q=7              q=8 GeV    
    2.00000e+02     1.74375e-09     1.73423e-09     1.70636e-09     1.66307e-09     1.60802e-09     1.54395e-09     1.47491e-09     1.40424e-09     1.33285e-09
    2.06000e+02     1.81212e-09     1.80237e-09     1.77478e-09     1.73123e-09     1.67568e-09     1.61141e-09     1.54229e-09     1.47121e-09     1.40045e-09
    2.12000e+02     1.87055e-09     1.86060e-09     1.83320e-09     1.78939e-09     1.73340e-09     1.66890e-09     1.59967e-09     1.52820e-09     1.45788e-09
    2.18000e+02     1.91953e-09     1.90942e-09     1.88211e-09     1.83806e-09     1.78169e-09     1.71693e-09     1.64755e-09     1.57574e-09     1.50568e-09
    2.24000e+02     1.95954e-09     1.94930e-09     1.92202e-09     1.87774e-09     1.82104e-09     1.75603e-09     1.68648e-09     1.61435e-09     1.54443e-09
    2.30000e+02     1.99108e-09     1.98075e-09     1.95343e-09     1.90895e-09     1.85198e-09     1.78671e-09     1.71699e-09     1.64461e-09     1.57471e-09
    2.36000e+02     2.01465e-09     2.00425e-09     1.97686e-09     1.93221e-09     1.87504e-09     1.80954e-09     1.73965e-09     1.66707e-09     1.59711e-09
    2.42000e+02     2.03075e-09     2.02033e-09     1.99282e-09     1.94804e-09     1.89074e-09     1.82504e-09     1.75503e-09     1.68233e-09     1.61226e-09
    2.48000e+02     2.03991e-09     2.02950e-09     2.00184e-09     1.95698e-09     1.89964e-09     1.83380e-09     1.76370e-09     1.69097e-09     1.62078e-09
    2.54000e+02     2.04265e-09     2.03227e-09     2.00447e-09     1.95959e-09     1.90229e-09     1.83638e-09     1.76626e-09     1.69360e-09     1.62331e-09
    2.60000e+02     2.03949e-09     2.02918e-09     2.00124e-09     1.95641e-09     1.89925e-09     1.83336e-09     1.76331e-09     1.69086e-09     1.62053e-09
    2.66000e+02     2.03097e-09     2.02076e-09     1.99270e-09     1.94800e-09     1.89111e-09     1.82535e-09     1.75548e-09     1.68338e-09     1.61309e-09
    2.72000e+02     2.01764e-09     2.00755e-09     1.97942e-09     1.93494e-09     1.87843e-09     1.81294e-09     1.74339e-09     1.67182e-09     1.60170e-09
    2.78000e+02     2.00004e-09     1.99011e-09     1.96194e-09     1.91781e-09     1.86182e-09     1.79675e-09     1.72768e-09     1.65684e-09     1.58705e-09
    2.84000e+02     1.97872e-09     1.96898e-09     1.94086e-09     1.89718e-09     1.84187e-09     1.77741e-09     1.70902e-09     1.63911e-09     1.56987e-09
    2.90000e+02     1.95425e-09     1.94474e-09     1.91673e-09     1.87365e-09     1.81920e-09     1.75556e-09     1.68806e-09     1.61935e-09     1.55090e-09
    2.96000e+02     1.92720e-09     1.91796e-09     1.89016e-09     1.84783e-09     1.79443e-09     1.73183e-09     1.66548e-09     1.59825e-09     1.53089e-09
    3.02000e+02     1.89815e-09     1.88920e-09     1.86172e-09     1.82031e-09     1.76818e-09     1.70690e-09     1.64199e-09     1.57654e-09     1.51060e-09
    3.08000e+02     1.86766e-09     1.85906e-09     1.83203e-09     1.79173e-09     1.74109e-09     1.68142e-09     1.61827e-09     1.55496e-09     1.49082e-09
    3.14000e+02     1.83634e-09     1.82813e-09     1.80169e-09     1.76270e-09     1.71382e-09     1.65608e-09     1.59505e-09     1.53425e-09     1.47234e-09
    3.20000e+02     1.80479e-09     1.79700e-09     1.77131e-09     1.73385e-09     1.68701e-09     1.63157e-09     1.57305e-09     1.51519e-09     1.45598e-09
    3.26000e+02     1.77359e-09     1.76627e-09     1.74151e-09     1.70583e-09     1.66134e-09     1.60859e-09     1.55301e-09     1.49855e-09     1.44256e-09
    3.32000e+02     1.74336e-09     1.73657e-09     1.71293e-09     1.67929e-09     1.63748e-09     1.58785e-09     1.53568e-09     1.48513e-09     1.43294e-09
    3.38000e+02     1.71472e-09     1.70851e-09     1.68619e-09     1.65489e-09     1.61612e-09     1.57006e-09     1.52184e-09     1.47573e-09     1.42795e-09
    3.44000e+02     1.68828e-09     1.68271e-09     1.66194e-09     1.63328e-09     1.59794e-09     1.55597e-09     1.51224e-09     1.47117e-09     1.42849e-09
    3.50000e+02     1.66469e-09     1.65981e-09     1.64083e-09     1.61514e-09     1.58366e-09     1.54631e-09     1.50769e-09     1.47230e-09     1.43544e-09
    3.56000e+02     1.64456e-09     1.64045e-09     1.62351e-09     1.60115e-09     1.57399e-09     1.54184e-09     1.50898e-09     1.47995e-09     1.44970e-09
    3.62000e+02     1.62855e-09     1.62527e-09     1.61065e-09     1.59200e-09     1.56965e-09     1.54332e-09     1.51693e-09     1.49500e-09     1.47220e-09
    3.68000e+02     1.61730e-09     1.61493e-09     1.60292e-09     1.58838e-09     1.57137e-09     1.55153e-09     1.53235e-09     1.51831e-09     1.50386e-09
    3.74000e+02     1.61147e-09     1.61009e-09     1.60101e-09     1.59101e-09     1.57989e-09     1.56725e-09     1.55609e-09     1.55080e-09     1.54564e-09
    3.80000e+02     1.61172e-09     1.61141e-09     1.60558e-09     1.60059e-09     1.59596e-09     1.59128e-09     1.58900e-09     1.59334e-09     1.59851e-09
    3.86000e+02     1.61871e-09     1.61957e-09     1.61734e-09     1.61784e-09     1.62034e-09     1.62442e-09     1.63194e-09     1.64688e-09     1.66344e-09
    3.92000e+02     1.63314e-09     1.63525e-09     1.63698e-09     1.64349e-09     1.65381e-09     1.66749e-09     1.68577e-09     1.71234e-09     1.74143e-09
    3.98000e+02     1.65567e-09     1.65914e-09     1.66522e-09     1.67828e-09     1.69713e-09     1.72132e-09     1.75140e-09     1.79067e-09     1.83349e-09
    4.04000e+02     1.68699e-09     1.69193e-09     1.70276e-09     1.72295e-09     1.75110e-09     1.78674e-09     1.82970e-09     1.88283e-09     1.94065e-09
    4.10000e+02     1.72781e-09     1.73433e-09     1.75032e-09     1.77826e-09     1.81651e-09     1.86461e-09     1.92160e-09     1.98980e-09     2.06395e-09
    4.16000e+02     1.77881e-09     1.78704e-09     1.80864e-09     1.84496e-09     1.89416e-09     1.95578e-09     2.02802e-09     2.11257e-09     2.20445e-09
    4.22000e+02     1.84072e-09     1.85078e-09     1.87845e-09     1.92381e-09     1.98488e-09     2.06112e-09     2.14989e-09     2.25213e-09     2.36322e-09
    4.28000e+02     1.91425e-09     1.92628e-09     1.96048e-09     2.01561e-09     2.08949e-09     2.18151e-09     2.28815e-09     2.40952e-09     2.54134e-09
    4.34000e+02     2.00012e-09     2.01426e-09     2.05550e-09     2.12112e-09     2.20882e-09     2.31785e-09     2.44377e-09     2.58576e-09     2.73992e-09
    4.40000e+02     2.09905e-09     2.11545e-09     2.16425e-09     2.24115e-09     2.34371e-09     2.47103e-09     2.61772e-09     2.78190e-09     2.96008e-09
    4.46000e+02     2.21179e-09     2.23061e-09     2.28750e-09     2.37649e-09     2.49502e-09     2.64197e-09     2.81097e-09     2.99900e-09     3.20295e-09
    4.52000e+02     2.33908e-09     2.36048e-09     2.42603e-09     2.52794e-09     2.66361e-09     2.83159e-09     3.02454e-09     3.23813e-09     3.46969e-09
    4.58000e+02     2.48165e-09     2.50582e-09     2.58059e-09     2.69633e-09     2.85035e-09     3.04083e-09     3.25941e-09     3.50038e-09     3.76144e-09
    4.64000e+02     2.64028e-09     2.66740e-09     2.75200e-09     2.88248e-09     3.05611e-09     3.27062e-09     3.51661e-09     3.78686e-09     4.07940e-09
    4.70000e+02     2.81572e-09     2.84598e-09     2.94102e-09     3.08722e-09     3.28180e-09     3.52192e-09     3.79718e-09     4.09867e-09     4.42475e-09
    4.76000e+02     3.00875e-09     3.04235e-09     3.14847e-09     3.31139e-09     3.52830e-09     3.79570e-09     4.10215e-09     4.43696e-09     4.79871e-09
    4.82000e+02     3.22013e-09     3.25729e-09     3.37515e-09     3.55583e-09     3.79653e-09     4.09293e-09     4.43259e-09     4.80286e-09     5.20250e-09
    4.88000e+02     3.45064e-09     3.49158e-09     3.62187e-09     3.82140e-09     4.08741e-09     4.41460e-09     4.78955e-09     5.19754e-09     5.63736e-09
    4.94000e+02     3.70109e-09     3.74604e-09     3.88945e-09     4.10896e-09     4.40185e-09     4.76170e-09     5.17413e-09     5.62216e-09     6.10455e-09

#     T(MeV)           q=9..17 GeV    
    2.00000e+02     1.26340e-09     1.19767e-09     1.13461e-09     1.07616e-09     1.02071e-09     9.68938e-10     9.21329e-10     8.76086e-10     8.35387e-10
    2.06000e+02     1.33173e-09     1.26573e-09     1.20376e-09     1.14516e-09     1.09092e-09     1.04009e-09     9.93446e-10     9.49651e-10     9.09249e-10
    2.12000e+02     1.38968e-09     1.32349e-09     1.26233e-09     1.20360e-09     1.15031e-09     1.10025e-09     1.05438e-09     1.01176e-09     9.71626e-10
    2.18000e+02     1.43785e-09     1.37152e-09     1.31095e-09     1.25210e-09     1.19953e-09     1.15006e-09     1.10483e-09     1.06311e-09     1.02324e-09
    2.24000e+02     1.47682e-09     1.41041e-09     1.35023e-09     1.29129e-09     1.23924e-09     1.19023e-09     1.14549e-09     1.10447e-09     1.06483e-09
    2.30000e+02     1.50721e-09     1.44079e-09     1.38083e-09     1.32183e-09     1.27014e-09     1.22147e-09     1.17710e-09     1.13659e-09     1.09719e-09
    2.36000e+02     1.52964e-09     1.46329e-09     1.40341e-09     1.34441e-09     1.29293e-09     1.24451e-09     1.20043e-09     1.16028e-09     1.12112e-09
    2.42000e+02     1.54476e-09     1.47856e-09     1.41868e-09     1.35972e-09     1.30837e-09     1.26013e-09     1.21628e-09     1.17637e-09     1.13746e-09
    2.48000e+02     1.55323e-09     1.48727e-09     1.42732e-09     1.36849e-09     1.31721e-09     1.26912e-09     1.22547e-09     1.18571e-09     1.14709e-09
    2.54000e+02     1.55574e-09     1.49011e-09     1.43009e-09     1.37147e-09     1.32025e-09     1.27229e-09     1.22884e-09     1.18920e-09     1.15092e-09
    2.60000e+02     1.55296e-09     1.48781e-09     1.42773e-09     1.36944e-09     1.31829e-09     1.27049e-09     1.22727e-09     1.18774e-09     1.14987e-09
    2.66000e+02     1.54562e-09     1.48108e-09     1.42100e-09     1.36319e-09     1.31217e-09     1.26460e-09     1.22167e-09     1.18227e-09     1.14492e-09
    2.72000e+02     1.53445e-09     1.47068e-09     1.41072e-09     1.35354e-09     1.30275e-09     1.25550e-09     1.21296e-09     1.17378e-09     1.13706e-09
    2.78000e+02     1.52018e-09     1.45738e-09     1.39768e-09     1.34133e-09     1.29092e-09     1.24412e-09     1.20211e-09     1.16327e-09     1.12731e-09
    2.84000e+02     1.50358e-09     1.44196e-09     1.38272e-09     1.32742e-09     1.27758e-09     1.23141e-09     1.19010e-09     1.15175e-09     1.11674e-09
    2.90000e+02     1.48544e-09     1.42524e-09     1.36671e-09     1.31270e-09     1.26366e-09     1.21834e-09     1.17794e-09     1.14030e-09     1.10643e-09
    2.96000e+02     1.46654e-09     1.40803e-09     1.35050e-09     1.29808e-09     1.25013e-09     1.20590e-09     1.16668e-09     1.12999e-09     1.09751e-09
    3.02000e+02     1.44769e-09     1.39120e-09     1.33500e-09     1.28449e-09     1.23796e-09     1.19513e-09     1.15738e-09     1.12195e-09     1.09113e-09
    3.08000e+02     1.42973e-09     1.37559e-09     1.32112e-09     1.27288e-09     1.22815e-09     1.18708e-09     1.15114e-09     1.11732e-09     1.08847e-09
    3.14000e+02     1.41350e-09     1.36210e-09     1.30980e-09     1.26423e-09     1.22173e-09     1.18281e-09     1.14908e-09     1.11727e-09     1.09074e-09
    3.20000e+02     1.39987e-09     1.35163e-09     1.30200e-09     1.25954e-09     1.21976e-09     1.18344e-09     1.15236e-09     1.12300e-09     1.09918e-09
    3.26000e+02     1.38970e-09     1.34511e-09     1.29869e-09     1.25984e-09     1.22332e-09     1.19009e-09     1.16215e-09     1.13574e-09     1.11508e-09
    3.32000e+02     1.38390e-09     1.34347e-09     1.30088e-09     1.26617e-09     1.23349e-09     1.20392e-09     1.17965e-09     1.15676e-09     1.13974e-09
    3.38000e+02     1.38339e-09     1.34768e-09     1.30957e-09     1.27959e-09     1.25140e-09     1.22610e-09     1.20611e-09     1.18734e-09     1.17450e-09
    3.44000e+02     1.38908e-09     1.35872e-09     1.32582e-09     1.30121e-09     1.27821e-09     1.25785e-09     1.24279e-09     1.22880e-09     1.22072e-09
    3.50000e+02     1.40192e-09     1.37759e-09     1.35068e-09     1.33212e-09     1.31508e-09     1.30038e-09     1.29096e-09     1.28248e-09     1.27980e-09
    3.56000e+02     1.42289e-09     1.40531e-09     1.38522e-09     1.37348e-09     1.36321e-09     1.35497e-09     1.35195e-09     1.34976e-09     1.35317e-09
    3.62000e+02     1.45294e-09     1.44292e-09     1.43056e-09     1.42643e-09     1.42382e-09     1.42289e-09     1.42710e-09     1.43204e-09     1.44230e-09
    3.68000e+02     1.49309e-09     1.49147e-09     1.48781e-09     1.49216e-09     1.49815e-09     1.50545e-09     1.51778e-09     1.53075e-09     1.54867e-09
    3.74000e+02     1.54435e-09     1.55205e-09     1.55811e-09     1.57187e-09     1.58747e-09     1.60398e-09     1.62539e-09     1.64735e-09     1.67382e-09
    3.80000e+02     1.60774e-09     1.62575e-09     1.64263e-09     1.66680e-09     1.69308e-09     1.71986e-09     1.75136e-09     1.78333e-09     1.81928e-09
    3.86000e+02     1.68431e-09     1.71368e-09     1.74255e-09     1.77819e-09     1.81628e-09     1.85445e-09     1.89713e-09     1.94020e-09     1.98665e-09
    3.92000e+02     1.77512e-09     1.81698e-09     1.85907e-09     1.90731e-09     1.95842e-09     2.00919e-09     2.06420e-09     2.11953e-09     2.17755e-09
    3.98000e+02     1.88125e-09     1.93681e-09     1.99342e-09     2.05546e-09     2.12086e-09     2.18549e-09     2.25406e-09     2.32287e-09     2.39361e-09
    4.04000e+02     2.00380e-09     2.07435e-09     2.14684e-09     2.22396e-09     2.30498e-09     2.38483e-09     2.46825e-09     2.55183e-09     2.63652e-09
    4.10000e+02     2.14389e-09     2.23077e-09     2.32059e-09     2.41415e-09     2.51221e-09     2.60870e-09     2.70834e-09     2.80805e-09     2.90799e-09
    4.16000e+02     2.30263e-09     2.40729e-09     2.51597e-09     2.62740e-09     2.74397e-09     2.85861e-09     2.97591e-09     3.09318e-09     3.20975e-09
    4.22000e+02     2.48119e-09     2.60516e-09     2.73428e-09     2.86508e-09     3.00173e-09     3.13611e-09     3.27259e-09     3.40892e-09     3.54358e-09
    4.28000e+02     2.68071e-09     2.82561e-09     2.97683e-09     3.12861e-09     3.28697e-09     3.44275e-09     3.60002e-09     3.75698e-09     3.91127e-09
    4.34000e+02     2.90238e-09     3.06992e-09     3.24499e-09     3.41943e-09     3.60119e-09     3.78013e-09     3.95987e-09     4.13911e-09     4.31466e-09
    4.40000e+02     3.14740e-09     3.33937e-09     3.54012e-09     3.73898e-09     3.94593e-09     4.14988e-09     4.35385e-09     4.55709e-09     4.75562e-09
    4.46000e+02     3.41699e-09     3.63528e-09     3.86361e-09     4.08874e-09     4.32273e-09     4.55363e-09     4.78367e-09     5.01272e-09     5.23603e-09
    4.52000e+02     3.71236e-09     3.95897e-09     4.21686e-09     4.47022e-09     4.73320e-09     4.99306e-09     5.25111e-09     5.50783e-09     5.75782e-09
    4.58000e+02     4.03477e-09     4.31179e-09     4.60131e-09     4.88494e-09     5.17891e-09     5.46985e-09     5.75793e-09     6.04428e-09     6.32295e-09
    4.64000e+02     4.38547e-09     4.69511e-09     5.01840e-09     5.33443e-09     5.66151e-09     5.98574e-09     6.30596e-09     6.62398e-09     6.93341e-09
    4.70000e+02     4.76576e-09     5.11030e-09     5.46961e-09     5.82028e-09     6.18264e-09     6.54247e-09     6.89702e-09     7.24882e-09     7.59121e-09
    4.76000e+02     5.17693e-09     5.55879e-09     5.95643e-09     6.34407e-09     6.74398e-09     7.14182e-09     7.53299e-09     7.92077e-09     8.29840e-09
    4.82000e+02     5.62029e-09     6.04198e-09     6.48036e-09     6.90742e-09     7.34723e-09     7.78558e-09     8.21575e-09     8.64180e-09     9.05706e-09
    4.88000e+02     6.09717e-09     6.56133e-09     7.04294e-09     7.51196e-09     7.99411e-09     8.47558e-09     8.94723e-09     9.41392e-09     9.86930e-09
    4.94000e+02     6.60892e-09     7.11830e-09     7.64573e-09     8.15936e-09     8.68637e-09     9.21366e-09     9.72938e-09     1.02391e-08     1.07373e-08
    
#    T(MeV)             q=18..25 GeV
    2.00000e+02     7.96944e-10     7.61568e-10     7.28004e-10     6.97100e-10     6.67928e-10     6.41640e-10     6.15600e-10     5.92440e-10
    2.06000e+02     8.72169e-10     8.38279e-10     8.06380e-10     7.76529e-10     7.48841e-10     7.23392e-10     6.99170e-10     6.76732e-10
    2.12000e+02     9.35651e-10     9.02922e-10     8.72351e-10     8.43361e-10     8.16867e-10     7.92096e-10     7.69327e-10     7.47484e-10
    2.18000e+02     9.88133e-10     9.56282e-10     9.26737e-10     8.98440e-10     8.72880e-10     8.48646e-10     8.27006e-10     8.05647e-10
    2.24000e+02     1.03039e-09     9.99174e-10     9.70392e-10     9.42643e-10     9.17789e-10     8.93973e-10     8.73179e-10     8.52213e-10
    2.30000e+02     1.06324e-09     1.03245e-09     1.00420e-09     9.76880e-10     9.52540e-10     9.29045e-10     9.08852e-10     8.88208e-10
    2.36000e+02     1.08751e-09     1.05698e-09     1.02909e-09     1.00210e-09     9.78111e-10     9.54863e-10     9.35070e-10     9.14697e-10
    2.42000e+02     1.10408e-09     1.07369e-09     1.04600e-09     1.01928e-09     9.95519e-10     9.72469e-10     9.52915e-10     9.32782e-10
    2.48000e+02     1.11386e-09     1.08353e-09     1.05593e-09     1.02943e-09     1.00581e-09     9.82938e-10     9.63502e-10     9.43603e-10
    2.54000e+02     1.11779e-09     1.08747e-09     1.05989e-09     1.03361e-09     1.01008e-09     9.87382e-10     9.67986e-10     9.48337e-10
    2.60000e+02     1.11683e-09     1.08652e-09     1.05895e-09     1.03290e-09     1.00944e-09     9.86949e-10     9.67556e-10     9.48197e-10
    2.66000e+02     1.11200e-09     1.08173e-09     1.05418e-09     1.02842e-09     1.00505e-09     9.82824e-10     9.63438e-10     9.44435e-10
    2.72000e+02     1.10431e-09     1.07418e-09     1.04671e-09     1.02132e-09     9.98096e-10     9.76228e-10     9.56894e-10     9.38339e-10
    2.78000e+02     1.09485e-09     1.06498e-09     1.03769e-09     1.01279e-09     9.89811e-10     9.68418e-10     9.49225e-10     9.31235e-10
    2.84000e+02     1.08471e-09     1.05527e-09     1.02831e-09     1.00405e-09     9.81455e-10     9.60687e-10     9.41764e-10     9.24488e-10
    2.90000e+02     1.07503e-09     1.04623e-09     1.01979e-09     9.96351e-10     9.74325e-10     9.54365e-10     9.35885e-10     9.19496e-10
    2.96000e+02     1.06696e-09     1.03906e-09     1.01338e-09     9.90996e-10     9.69753e-10     9.50817e-10     9.32994e-10     9.17699e-10
    3.02000e+02     1.06172e-09     1.03501e-09     1.01037e-09     9.89305e-10     9.69105e-10     9.51446e-10     9.34537e-10     9.20572e-10
    3.08000e+02     1.06051e-09     1.03536e-09     1.01208e-09     9.92638e-10     9.73785e-10     9.57689e-10     9.41994e-10     9.29627e-10
    3.14000e+02     1.06462e-09     1.04140e-09     1.01987e-09     1.00239e-09     9.85231e-10     9.71022e-10     9.56883e-10     9.46413e-10
    3.20000e+02     1.07533e-09     1.05448e-09     1.03511e-09     1.01999e-09     1.00492e-09     9.92956e-10     9.80757e-10     9.72519e-10
    3.26000e+02     1.09396e-09     1.07597e-09     1.05925e-09     1.04690e-09     1.03435e-09     1.02504e-09     1.01521e-09     1.00957e-09
    3.32000e+02     1.12189e-09     1.10727e-09     1.09372e-09     1.08463e-09     1.07507e-09     1.06885e-09     1.06186e-09     1.05922e-09
    3.38000e+02     1.16049e-09     1.14983e-09     1.14001e-09     1.13469e-09     1.12866e-09     1.12601e-09     1.12238e-09     1.12318e-09
    3.44000e+02     1.21119e-09     1.20512e-09     1.19965e-09     1.19867e-09     1.19673e-09     1.19818e-09     1.19846e-09     1.20319e-09
