#    T(MeV)             q=18..25 GeV
    2.00000e+02     7.96944e-10     7.61568e-10     7.28004e-10     6.97100e-10     6.67928e-10     6.41640e-10     6.15600e-10     5.92440e-10
    2.06000e+02     8.72169e-10     8.38279e-10     8.06380e-10     7.76529e-10     7.48841e-10     7.23392e-10     6.99170e-10     6.76732e-10
    2.12000e+02     9.35651e-10     9.02922e-10     8.72351e-10     8.43361e-10     8.16867e-10     7.92096e-10     7.69327e-10     7.47484e-10
    2.18000e+02     9.88133e-10     9.56282e-10     9.26737e-10     8.98440e-10     8.72880e-10     8.48646e-10     8.27006e-10     8.05647e-10
    2.24000e+02     1.03039e-09     9.99174e-10     9.70392e-10     9.42643e-10     9.17789e-10     8.93973e-10     8.73179e-10     8.52213e-10
    2.30000e+02     1.06324e-09     1.03245e-09     1.00420e-09     9.76880e-10     9.52540e-10     9.29045e-10     9.08852e-10     8.88208e-10
    2.36000e+02     1.08751e-09     1.05698e-09     1.02909e-09     1.00210e-09     9.78111e-10     9.54863e-10     9.35070e-10     9.14697e-10
    2.42000e+02     1.10408e-09     1.07369e-09     1.04600e-09     1.01928e-09     9.95519e-10     9.72469e-10     9.52915e-10     9.32782e-10
    2.48000e+02     1.11386e-09     1.08353e-09     1.05593e-09     1.02943e-09     1.00581e-09     9.82938e-10     9.63502e-10     9.43603e-10
    2.54000e+02     1.11779e-09     1.08747e-09     1.05989e-09     1.03361e-09     1.01008e-09     9.87382e-10     9.67986e-10     9.48337e-10
    2.60000e+02     1.11683e-09     1.08652e-09     1.05895e-09     1.03290e-09     1.00944e-09     9.86949e-10     9.67556e-10     9.48197e-10
    2.66000e+02     1.11200e-09     1.08173e-09     1.05418e-09     1.02842e-09     1.00505e-09     9.82824e-10     9.63438e-10     9.44435e-10
    2.72000e+02     1.10431e-09     1.07418e-09     1.04671e-09     1.02132e-09     9.98096e-10     9.76228e-10     9.56894e-10     9.38339e-10
    2.78000e+02     1.09485e-09     1.06498e-09     1.03769e-09     1.01279e-09     9.89811e-10     9.68418e-10     9.49225e-10     9.31235e-10
    2.84000e+02     1.08471e-09     1.05527e-09     1.02831e-09     1.00405e-09     9.81455e-10     9.60687e-10     9.41764e-10     9.24488e-10
    2.90000e+02     1.07503e-09     1.04623e-09     1.01979e-09     9.96351e-10     9.74325e-10     9.54365e-10     9.35885e-10     9.19496e-10
    2.96000e+02     1.06696e-09     1.03906e-09     1.01338e-09     9.90996e-10     9.69753e-10     9.50817e-10     9.32994e-10     9.17699e-10
    3.02000e+02     1.06172e-09     1.03501e-09     1.01037e-09     9.89305e-10     9.69105e-10     9.51446e-10     9.34537e-10     9.20572e-10
    3.08000e+02     1.06051e-09     1.03536e-09     1.01208e-09     9.92638e-10     9.73785e-10     9.57689e-10     9.41994e-10     9.29627e-10
    3.14000e+02     1.06462e-09     1.04140e-09     1.01987e-09     1.00239e-09     9.85231e-10     9.71022e-10     9.56883e-10     9.46413e-10
    3.20000e+02     1.07533e-09     1.05448e-09     1.03511e-09     1.01999e-09     1.00492e-09     9.92956e-10     9.80757e-10     9.72519e-10
    3.26000e+02     1.09396e-09     1.07597e-09     1.05925e-09     1.04690e-09     1.03435e-09     1.02504e-09     1.01521e-09     1.00957e-09
    3.32000e+02     1.12189e-09     1.10727e-09     1.09372e-09     1.08463e-09     1.07507e-09     1.06885e-09     1.06186e-09     1.05922e-09
    3.38000e+02     1.16049e-09     1.14983e-09     1.14001e-09     1.13469e-09     1.12866e-09     1.12601e-09     1.12238e-09     1.12318e-09
    3.44000e+02     1.21119e-09     1.20512e-09     1.19965e-09     1.19867e-09     1.19673e-09     1.19818e-09     1.19846e-09     1.20319e-09
    3.50000e+02     1.27545e-09     1.27462e-09     1.27420e-09     1.27816e-09     1.28094e-09     1.28704e-09     1.29184e-09     1.30100e-09
    3.56000e+02     1.35475e-09     1.35990e-09     1.36523e-09     1.37480e-09     1.38296e-09     1.39433e-09     1.40429e-09     1.41844e-09
    3.62000e+02     1.45063e-09     1.46250e-09     1.47437e-09     1.49025e-09     1.50452e-09     1.52181e-09     1.53762e-09     1.55736e-09
    3.68000e+02     1.56462e-09     1.58403e-09     1.60328e-09     1.62624e-09     1.64738e-09     1.67128e-09     1.69368e-09     1.71964e-09
    3.74000e+02     1.69831e-09     1.72613e-09     1.75364e-09     1.78448e-09     1.81331e-09     1.84458e-09     1.87435e-09     1.90720e-09
    3.80000e+02     1.85333e-09     1.89047e-09     1.92717e-09     1.96677e-09     2.00415e-09     2.04359e-09     2.08154e-09     2.12201e-09
    3.86000e+02     2.03131e-09     2.07874e-09     2.12563e-09     2.17490e-09     2.22175e-09     2.27020e-09     2.31721e-09     2.36605e-09
    3.92000e+02     2.23395e-09     2.29267e-09     2.35081e-09     2.41073e-09     2.46802e-09     2.52637e-09     2.58334e-09     2.64137e-09
    3.98000e+02     2.46296e-09     2.53404e-09     2.60452e-09     2.67613e-09     2.74489e-09     2.81408e-09     2.88198e-09     2.95005e-09
    4.04000e+02     2.72008e-09     2.80463e-09     2.88863e-09     2.97300e-09     3.05431e-09     3.13534e-09     3.21517e-09     3.29418e-09
    4.10000e+02     3.00710e-09     3.10628e-09     3.20502e-09     3.30331e-09     3.39830e-09     3.49222e-09     3.58502e-09     3.67591e-09
    4.16000e+02     3.32582e-09     3.44085e-09     3.55561e-09     3.66903e-09     3.77888e-09     3.88680e-09     3.99366e-09     4.09744e-09
    4.22000e+02     3.67809e-09     3.81024e-09     3.94237e-09     4.07218e-09     4.19813e-09     4.32120e-09     4.44327e-09     4.56098e-09
    4.28000e+02     4.06579e-09     4.21638e-09     4.36726e-09     4.51480e-09     4.65816e-09     4.79760e-09     4.93606e-09     5.06879e-09
    4.34000e+02     4.49082e-09     4.66122e-09     4.83233e-09     4.99899e-09     5.16111e-09     5.31819e-09     5.47426e-09     5.62316e-09
    4.40000e+02     4.95513e-09     5.14677e-09     5.33962e-09     5.52686e-09     5.70916e-09     5.88521e-09     6.06017e-09     6.22644e-09
    4.46000e+02     5.46068e-09     5.67504e-09     5.89122e-09     6.10056e-09     6.30452e-09     6.50093e-09     6.69610e-09     6.88098e-09
    4.52000e+02     6.00949e-09     6.24810e-09     6.48925e-09     6.72229e-09     6.94943e-09     7.16765e-09     7.38441e-09     7.58921e-09
    4.58000e+02     6.60359e-09     6.86804e-09     7.13588e-09     7.39428e-09     7.64619e-09     7.88773e-09     8.12748e-09     8.35356e-09
    4.64000e+02     7.24505e-09     7.53699e-09     7.83328e-09     8.11876e-09     8.39711e-09     8.66354e-09     8.92774e-09     9.17652e-09
    4.70000e+02     7.93597e-09     8.25710e-09     8.58368e-09     8.89805e-09     9.20454e-09     9.49750e-09     9.78766e-09     1.00606e-08
    4.76000e+02     8.67850e-09     9.03056e-09     9.38934e-09     9.73446e-09     1.00709e-08     1.03921e-08     1.07097e-08     1.10084e-08
    4.82000e+02     9.47479e-09     9.85960e-09     1.02525e-08     1.06304e-08     1.09985e-08     1.13497e-08     1.16965e-08     1.20224e-08
    4.88000e+02     1.03270e-08     1.07465e-08     1.11756e-08     1.15881e-08     1.19900e-08     1.23730e-08     1.27505e-08     1.31054e-08
    4.94000e+02     1.12375e-08     1.16935e-08     1.21609e-08     1.26102e-08     1.30477e-08     1.34644e-08     1.38744e-08     1.42599e-08
